freq,resp
0.0,0.26727923115963004
0.01953125,0.2668891503917336
0.0390625,0.2657202680813937
0.05859374999999999,0.26377665949555346
0.078125,0.2610651010382265
0.09765625,0.2575950466988106
0.11718749999999999,0.253378595099958
0.13671875,0.24843044716732332
0.15625,0.24276785445288285
0.17578125,0.236410558154949
0.1953125,0.2293807188921661
0.21484374999999997,0.22170283730578483
0.23437499999999997,0.2134036655848563
0.25390625,0.20451211003288391
0.2734375,0.19505912482224297
0.29296875,0.185077597114275
0.3125,0.1746022237586842
0.33203125,0.16366937982556867
0.3515625,0.15231697926708357
0.37109375,0.14058432805309573
0.390625,0.1285119701760914
0.41015625,0.11614152697453412
0.42968749999999994,0.10351553028050886
0.44921874999999994,0.09067724995602305
0.46874999999999994,0.07767051644239903
0.48828125000000006,0.06453953900769259
0.5078125,0.05132872043742089
0.52734375,0.038082468972997364
0.546875,0.024845008359187327
0.5664062500000001,0.01166018691559154
0.5859375,-0.001428713403425724
0.60546875,-0.014379166951922788
0.625,-0.027149592292696586
0.6445312500000001,-0.03969953697868168
0.6640625,-0.05198985811777507
0.6835937499999999,-0.06398289761128205
0.703125,-0.07564265095400657
0.72265625,-0.08693492849296475
0.7421875,-0.09782750806159236
0.76171875,-0.10829027793827341
0.78125,-0.1182953691214792
0.80078125,-0.12781727596917575
0.8203125,-0.13683296431695538
0.83984375,-0.14532196626721366
0.8593749999999999,-0.15326646092982743
0.87890625,-0.16065134049243177
0.8984374999999999,-0.16746426110428106
0.9179687500000001,-0.17369567817101822
0.9374999999999999,-0.1793388657762375
0.95703125,-0.1843899200691053
0.9765625000000001,-0.18884774658289485
0.99609375,-0.1927140315761376
1.015625,-0.19599319761410075
1.03515625,-0.1986923437322358
1.0546875,-0.20082117064294455
1.07421875,-0.2023918915616815
1.09375,-0.20341912933587453
1.11328125,-0.2039198006599432
1.1328125000000002,-0.20391298825000692
1.15234375,-0.203419801932396
1.171875,-0.20246322966971042
1.19140625,-0.20106797960666478
1.2109375,-0.19926031426485272
1.23046875,-0.19706787805088855
1.25,-0.19451951926628794
1.26953125,-0.19164510781999763
1.2890625000000002,-0.18847534984649142
1.30859375,-0.1850416004241517
1.328125,-0.1813756755710612
1.34765625,-0.1775096646693075
1.3671874999999998,-0.17347574443515307
1.38671875,-0.1693059955121247
1.40625,-0.16503222271799284
1.4257812499999998,-0.16068577992611685
1.4453125,-0.15629740050704413
1.46484375,-0.1518970341994565
1.484375,-0.14751369122034885
1.5039062500000002,-0.14317529436455004
1.5234375,-0.13890853978318884
1.54296875,-0.13473876707084803
1.5625,-0.1306898392318866
1.5820312499999998,-0.12678403303852429
1.6015625,-0.12304194023702185
1.6210937500000002,-0.11948238000381012
1.640625,-0.11612232300081994
1.6601562499999998,-0.11297682732888477
1.6796875,-0.11005898662924965
1.69921875,-0.10737989053659894
1.7187499999999998,-0.10494859764158009
1.7382812500000002,-0.1027721210770141
1.7578125,-0.10085542679892125
1.77734375,-0.09920144459139232
1.7968749999999998,-0.0978110917822194
1.81640625,-0.09668330961434408
1.8359375000000002,-0.09581511217561664
1.85546875,-0.09520164774620912
1.8749999999999998,-0.0948362723786316
1.89453125,-0.09471063547964642
1.9140625,-0.09481477711602772
1.93359375,-0.09513723671706967
1.9531250000000002,-0.09566517279581793
1.97265625,-0.09638449325829762
1.9921875,-0.09727999581548791
2.01171875,-0.09833551795678336
2.03125,-0.09953409588639256
2.0507812500000004,-0.10085813176593851
2.0703125,-0.10228956854799207
2.08984375,-0.1038100716269868
2.109375,-0.10540121647648562
2.12890625,-0.10704468138607785
2.1484375,-0.10872244435791839
2.16796875,-0.11041698317311968
2.1875,-0.1121114775927385
2.20703125,-0.11379001261796184
2.2265625,-0.1154377817002065
2.24609375,-0.11704128876530494
2.2656250000000004,-0.11858854789738708
2.28515625,-0.12006927951858035
2.3046875,-0.12147510190092797
2.32421875,-0.12279971685736008
2.34375,-0.12403908847997434
2.36328125,-0.12519161382644015
2.3828125,-0.12625828449904117
2.40234375,-0.12724283811607573
2.421875,-0.12815189874132535
2.4414062499999996,-0.12899510541406414
2.4609375,-0.1297852280086334
2.48046875,-0.1305382697484088
2.5,-0.13127355580274977
2.51953125,-0.1320138075062601
2.5390625,-0.1327852018559418
2.55859375,-0.13361741606225971
2.5781250000000004,-0.1345436570530112
2.59765625,-0.13560067595285236
2.6171875,-0.13682876768453786
2.6367187499999996,-0.13827175595886532
2.65625,-0.13997696403733859
2.67578125,-0.14199517176330728
2.6953125,-0.14438055946211964
2.71484375,-0.14719063940780708
2.7343749999999996,-0.1504861756414036
2.75390625,-0.15433109300373432
2.7734375,-0.15879237631234172
2.7929687500000004,-0.16393996066764285
2.8125,-0.16984661391741016
2.83203125,-0.1765878123406092
2.8515624999999996,-0.1842416106320706
2.87109375,-0.19288850727844617
2.890625,-0.20261130641375258
2.91015625,-0.21349497723046462
2.9296875,-0.22562651199987652
2.9492187499999996,-0.23909478372466084
2.96875,-0.25399040440750903
2.98828125,-0.270405584874199
3.0078125000000004,-0.28843399703771844
3.02734375,-0.30817063943376555
3.046875,-0.32971170679785544
3.0664062499999996,-0.3531544643914641
3.0859375,-0.3785971277202729
3.10546875,-0.4061387482223899
3.125,-0.4358791054394709
3.14453125,-0.4679186061198004
3.1640624999999996,-0.5023581906400496
3.18359375,-0.5392992470728654
3.203125,-0.578843533170423
3.2226562499999996,-0.6210931064809573
3.2421875000000004,-0.6661502627657174
3.2617187500000004,-0.7141174828385922
3.28125,-0.7650973879099232
3.30078125,-0.8191927034797863
3.3203124999999996,-0.8765062317945891
3.33984375,-0.9371408328543579
3.359375,-1.0011994139360942
3.3789062499999996,-1.068784927581705
3.3984375,-1.1400003779866381
3.41796875,-1.2149488357177078
3.4374999999999996,-1.29373346068546
3.4570312500000004,-1.376457533297752
3.4765625000000004,-1.463224493726714
3.49609375,-1.5541379892312188
3.515625,-1.6493019294907048
3.5351562499999996,-1.748820549924276
3.5546875,-1.8527984829907453
3.57421875,-1.961340837491265
3.5937499999999996,-2.074553285925804
3.61328125,-2.192542159988653
3.6328125,-2.3154145543258635
3.65234375,-2.4432784387198065
3.6718750000000004,-2.5762427789124227
3.6914062500000004,-2.7144176663302133
3.7109375,-2.857914457030306
3.73046875,-3.0068459202489195
3.7499999999999996,-3.1613263970014693
3.76953125,-3.321471969258404
3.7890625,-3.4874006403028495
3.8085937499999996,-3.6592325269669312
3.828125,-3.8370900645435277
3.84765625,-4.021098225281122
3.8671875,-4.211384751492337
3.8867187500000004,-4.408080404443803
3.9062500000000004,-4.611319230347812
3.92578125,-4.821238844947702
3.9453125,-5.037980738381251
3.9648437499999996,-5.261690602223425
3.984375,-5.4925186808548485
4.00390625,-5.730620149580677
4.0234375,-5.976155522240608
4.04296875,-6.229291091411689
4.0625,-6.490199404718524
4.08203125,-6.759059781239492
4.101562500000001,-7.036058872543316
4.12109375,-7.321391273520978
4.140625,-7.615260188908389
4.16015625,-7.917878162244593
4.1796875,-8.229467875000791
4.19921875,-8.550263024774779
4.21875,-8.880509292806485
4.23828125,-9.22046541267489
4.2578125,-9.570404353933888
4.27734375,-9.93061463669829
4.296875,-10.301401795876773
4.316406250000001,-10.683090016964051
4.3359375,-11.07602396916937
4.35546875,-11.480570866325495
4.375,-11.897122791684334
4.39453125,-12.326099329608024
4.4140625,-12.76795055562278
4.43359375,-13.223160446724297
4.453125,-13.692250786736208
4.47265625,-14.175785657619164
4.4921875,-14.674376627819235
4.51171875,-15.188688774243378
4.531250000000001,-15.719447706880063
4.55078125,-16.267447806642622
4.5703125,-16.83356194069845
4.58984375,-17.418752989494838
4.609375,-18.024087611662274
4.62890625,-18.65075279509619
4.6484375,-19.300075906383537
4.66796875,-19.973549173133648
4.6875,-20.67285983931283
4.70703125,-21.39992765907448
4.7265625,-22.156951995449315
4.74609375,-22.946471652511278
4.765625,-23.771441828566292
4.78515625,-24.635334451430676
4.8046875,-25.54227100457236
4.82421875,-26.497201384506937
4.84375,-27.506149411016878
4.86328125,-28.57655726956437
4.882812499999999,-29.717781022053007
4.902343750000001,-30.94182449561827
4.921875,-32.26446407274973
4.94140625,-33.707044509275676
4.9609375,-35.29949228211218
4.98046875,-37.085694999443504
5.0,-39.133899436317556
5.01953125,-41.55906525607955
5.0390625,-44.578748993216905
5.05859375,-48.689965395227574
5.078125,-55.545432200507676
5.09765625,-77.86147835073572
5.1171875,-55.255691328382134
5.13671875,-50.07165888855134
5.156250000000001,-47.19667921109163
5.17578125,-45.30647234238461
5.1953125,-43.97003170862999
5.21484375,-42.99223391637529
5.234375,-42.268109766266456
5.25390625,-41.73473134838262
5.273437499999999,-41.351444041550366
5.29296875,-41.090498499449346
5.3125,-40.932134486004855
5.33203125,-40.86179315986463
5.3515625,-40.86843543874599
5.371093750000001,-40.94347352787242
5.390625,-41.08005993566279
5.41015625,-41.27259303474784
5.4296875,-41.516357254487446
5.44921875,-41.8072479430449
5.468749999999999,-42.14154898749074
5.488281249999999,-42.51574188127237
5.5078125,-42.92633143737349
5.52734375,-43.36967764022969
5.546875,-43.841826374065526
5.56640625,-44.33833479689377
5.585937500000001,-44.854090658112334
5.60546875,-45.38312955089062
5.625,-45.91846054762552
5.64453125,-46.451919247724405
5.6640625,-46.97407772137086
5.683593749999999,-47.47425170770082
5.703124999999999,-47.940653376109694
5.72265625,-48.36073738993345
5.7421875,-48.72177187695614
5.76171875,-49.01162863270483
5.78125,-49.21972949831205
5.800781250000001,-49.33802119806734
5.8203125,-49.3618039084436
5.83984375,-49.29023722583379
5.859375,-49.1264046489157
5.87890625,-48.8769201887738
5.898437499999999,-48.551169678752146
5.917968749999999,-48.160352480640114
5.9375,-47.71650428215473
5.95703125,-47.2316451114046
5.9765625,-46.717134130958094
5.99609375,-46.18325135087439
6.015625000000001,-45.63898274587022
6.03515625,-45.09196337080796
6.0546875,-44.54852865934224
6.07421875,-44.013830119986544
6.09375,-43.49198192764171
6.113281249999999,-42.9862154396872
6.132812499999999,-42.49902748477404
6.15234375,-42.032314806653986
6.171875,-41.587491456719725
6.19140625,-41.16558866268343
6.2109375,-40.767338236576755
6.230468750000001,-40.3932413288384
6.25,-40.04362459038071
6.26953125,-39.71868578080433
6.2890625,-39.41853069432184
6.30859375,-39.14320304880276
6.328124999999999,-38.89270874578154
6.347656249999999,-38.66703568590787
6.3671875,-38.466170127253804
6.38671875,-38.29011040729877
6.40625,-38.1388787133596
6.425781249999999,-38.01253147875821
6.445312499999999,-37.91116890059437
6.46484375,-37.834944017138284
6.484375000000001,-37.78407174674199
6.50390625,-37.758838274746594
6.523437500000001,-37.759611180242175
6.542968749999999,-37.78685072211417
6.5625,-37.841122756723365
6.58203125,-37.92311384317464
6.6015625,-38.033649214863374
6.62109375,-38.173714470646736
6.640624999999999,-38.34448208479331
6.660156249999999,-38.5473441806675
6.6796875,-38.78395350264545
6.699218750000001,-39.05627522118506
6.71875,-39.3666532221392
6.738281250000001,-39.717896030318876
6.757812499999999,-40.11338977101364
6.77734375,-40.55724903607246
6.796875,-41.05452197411468
6.81640625,-41.61147475274958
6.8359375,-42.23599529195546
6.855468749999999,-42.93818172372818
6.874999999999999,-43.73122720120617
6.89453125,-44.63280028062772
6.914062500000001,-45.66729630615259
6.93359375,-46.86971565488501
6.953125000000001,-48.29282144410514
6.972656249999999,-50.021594894412964
6.9921875,-52.206262002189916
7.01171875,-55.1527840357776
7.03125,-59.65882155760979
7.05078125,-69.52683992163232
7.070312499999999,-68.67106947791027
7.08984375,-59.45559198463166
7.109375,-55.12899832058616
7.128906250000001,-52.29439336303018
7.1484375,-50.199108683876744
7.167968750000001,-48.5494446420471
7.187499999999999,-47.1998862202511
7.20703125,-46.06764755311551
7.2265625,-45.101126245086476
7.24609375,-44.26599384728063
7.265625,-43.53827231942711
7.285156249999999,-42.90056803249339
7.3046875,-42.339879023649196
7.32421875,-41.8462474840246
7.343750000000001,-41.41189453574413
7.36328125,-41.030644125287296
7.382812500000001,-40.69752753652888
7.402343749999999,-40.40850477666733
7.421875,-40.160263918138554
7.44140625,-39.95007384251953
7.4609375,-39.77567444595172
7.48046875,-39.63519369735727
7.499999999999999,-39.527084335254436
7.51953125,-39.45007520574987
7.5390625,-39.403133726207386
7.558593750000001,-39.38543697199506
7.578125,-39.39634959147759
7.597656250000001,-39.43540726058028
7.617187499999999,-39.50230475995504
7.63671875,-39.59688803969718
7.65625,-39.71914985952868
7.67578125,-39.86922877853323
7.6953125,-40.04741143503687
7.714843749999999,-40.25413821848996
7.734375,-40.49001260499981
7.75390625,-40.75581462135706
7.773437500000001,-41.0525191370259
7.79296875,-41.38131998345717
7.812500000000001,-41.74366129869058
7.832031249999999,-42.141278041522256
7.8515625,-42.57624838756903
7.87109375,-43.05106182425712
7.890625,-43.56870838595129
7.91015625,-44.132796912543846
7.929687499999999,-44.74771397518531
7.94921875,-45.418841055500245
7.96875,-46.15285723144697
7.988281250000001,-46.9581708690807
8.0078125,-47.8455521595273
8.02734375,-48.829089956603625
8.046875,-49.927695260983995
8.06640625,-51.16757495026454
8.0859375,-52.58654014035067
8.10546875,-54.24207159698063
8.125,-56.22792280984338
8.14453125,-58.7131008421201
8.1640625,-62.05331110113433
8.18359375,-67.23904704785917
8.203125000000002,-80.32901011548957
8.22265625,-72.98981312009813
8.2421875,-65.58739580033505
8.26171875,-61.86258743677768
8.28125,-59.43276278276634
8.30078125,-57.67966868814348
8.3203125,-56.34893241608982
8.33984375,-55.31130528857629
8.359375,-54.492467723131725
8.37890625,-53.84613466929458
8.3984375,-53.341920828702754
8.417968750000002,-52.95922030362864
8.4375,-52.683867308977796
8.45703125,-52.50621476302516
8.4765625,-52.41999870347968
8.49609375,-52.421675815920096
8.515625,-52.510075310360094
8.53515625,-52.68628940041801
8.5546875,-52.95377971920261
8.57421875,-53.31872169618716
8.59375,-53.79066175777994
8.61328125,-54.3836446036422
8.632812500000002,-55.11812031086474
8.65234375,-56.02425691320411
8.671875,-57.14800632318444
8.69140625,-58.563115689687734
8.7109375,-60.39769937391037
8.73046875,-62.90339809204744
8.75,-66.68947056248486
8.76953125,-74.07933324284213
8.7890625,-82.09584887422908
8.80859375,-68.76403710537492
8.828125,-63.62174594741692
8.847656250000002,-60.349168708996544
8.8671875,-57.93825262007221
8.88671875,-56.028973492390264
8.90625,-54.45071585374993
8.92578125,-53.10896763954187
8.9453125,-51.94582568396635
8.96484375,-50.923210714333194
8.984375,-50.01472600462775
9.00390625,-49.20131332873777
9.0234375,-48.46876085089483
9.04296875,-47.80618943547787
9.062500000000002,-47.20508975526903
9.08203125,-46.65868593223869
9.1015625,-46.16150127514893
9.12109375,-45.70905374426233
9.140625,-45.29763734120224
9.16015625,-44.92416198868344
9.1796875,-44.58603419767367
9.19921875,-44.28106679904914
9.21875,-44.007409797610464
9.23828125,-43.763496859105125
9.2578125,-43.548003569541514
9.277343750000002,-43.35981471082722
9.296875,-43.19799856135437
9.31640625,-43.06178676974887
9.3359375,-42.950558738468025
9.35546875,-42.863829739687276
9.375,-42.8012422014459
9.39453125,-42.762559769673445
9.4140625,-42.747663887387205
9.43359375,-42.75655274782813
9.453125,-42.78934258293225
9.47265625,-42.84627135037296
9.4921875,-42.92770498915151
9.51171875,-43.034146533706135
9.53125,-43.1662485196103
9.55078125,-43.3248292929039
9.5703125,-43.510894067370614
9.589843750000002,-43.725661884364
9.609375,-43.97060005433322
9.62890625,-44.24746825239366
9.6484375,-44.55837528556089
9.66796875,-44.90585277761535
9.6875,-45.29295183928135
9.70703125,-45.72337155269424
9.7265625,-46.20163238559666
9.74609375,-46.73331448321707
9.765624999999998,-47.32539200534888
9.78515625,-47.986713732567694
9.804687500000002,-48.728713813379926
9.82421875,-49.56649867763736
9.84375,-50.520577223352056
9.86328125,-51.61975280484603
9.8828125,-52.90626004829561
9.90234375,-54.44562793697531
9.921875,-56.34768956520932
9.94140625,-58.81840090208008
9.9609375,-62.32020453471498
9.980468749999998,-68.32880099321366
