freq,resp
0.0,0.010861171494981283
0.01953125,0.010952808132119754
0.0390625,0.011226877696366419
0.05859374999999999,0.011680866341528451
0.078125,0.012310608241945502
0.09765625,0.013110321237891387
0.11718749999999999,0.014072656278798206
0.13671875,0.015188760210624553
0.15625,0.01644835133345191
0.17578125,0.01783980704181512
0.1953125,0.01935026275483775
0.21484374999999997,0.02096572124675953
0.23437499999999997,0.02267117140201032
0.25390625,0.02445071534327539
0.2734375,0.026287702816557842
0.29296875,0.02816487166446389
0.3125,0.03006449317798921
0.33203125,0.031968521088018065
0.3515625,0.03385874294027766
0.37109375,0.0357169325916113
0.390625,0.03752500257034554
0.41015625,0.039265155058863604
0.42968749999999994,0.04092003028191533
0.44921874999999994,0.04247285111834588
0.46874999999999994,0.04390756279671903
0.48828125000000006,0.04520896658566237
0.5078125,0.046362846446889816
0.52734375,0.047356087682145304
0.546875,0.0481767866739943
0.5664062500000001,0.04881435089367426
0.5859375,0.04925958842655703
0.60546875,0.04950478634670556
0.625,0.04954377735566208
0.6445312500000001,0.04937199418689614
0.6640625,0.048986511365699426
0.6835937499999999,0.04838607400413397
0.703125,0.047571113402355966
0.72265625,0.046543749319724916
0.7421875,0.045307778872887346
0.76171875,0.04386865211158633
0.78125,0.0422334344175113
0.80078125,0.040410755965658476
0.8203125,0.03841074858191786
0.83984375,0.03624497042406416
0.8593749999999999,0.03392631900593494
0.87890625,0.031468933175759016
0.8984374999999999,0.028888084748728407
0.9179687500000001,0.026200060580662286
0.9374999999999999,0.023422035952983623
0.95703125,0.020571940218809124
0.9765625000000001,0.01766831573466134
0.99609375,0.014730171171433196
1.015625,0.011776830360925368
1.03515625,0.008827777889383158
1.0546875,0.005902502696201994
1.07421875,0.003020340973449746
1.09375,0.0002003196890253752
1.11328125,-0.0025389979276413234
1.1328125000000002,-0.005179663594125732
1.15234375,-0.0077044905427689145
1.171875,-0.010097194133804574
1.19140625,-0.012342525234554032
1.2109375,-0.014426395133331233
1.23046875,-0.016335990818245837
1.25,-0.01805987952584487
1.26953125,-0.019588101552010233
1.2890625000000002,-0.0209122504172517
1.30859375,-0.022025539589396268
1.328125,-0.022922855087825975
1.34765625,-0.02360079342325379
1.3671874999999998,-0.02405768446451679
1.38671875,-0.024293598967049947
1.40625,-0.024310340645089912
1.4257812499999998,-0.024111422819420705
1.4453125,-0.023702029822779063
1.46484375,-0.023088963494009095
1.484375,-0.02228057523804994
1.5039062500000002,-0.021286684269927483
1.5234375,-0.020118482795653342
1.54296875,-0.018788429009675176
1.5625,-0.017310128906094978
1.5820312499999998,-0.015698208007886846
1.6015625,-0.013968174214098088
1.6210937500000002,-0.012136273048586534
1.640625,-0.010219336664653838
1.6601562499999998,-0.008234628017792704
1.6796875,-0.006199681663345991
1.69921875,-0.004132142667258044
1.7187499999999998,-0.002049605136626287
1.7382812500000002,3.054811756201815e-05
1.7578125,0.00209130327941837
1.77734375,0.004116169100827145
1.7968749999999998,0.006089324888861873
1.81640625,0.00799576148824299
1.8359375000000002,0.00982141388828859
1.85546875,0.011553284141594268
1.8749999999999998,0.013179553348183893
1.89453125,0.014689681532539392
1.9140625,0.016074494322191143
1.93359375,0.017326255423928776
1.9531250000000002,0.01843872398761812
1.97265625,0.019407196046921767
1.9921875,0.020228529331211383
2.01171875,0.020901150852862163
2.03125,0.021425046789103522
2.0507812500000004,0.02180173429704741
2.0703125,0.022034215024572982
2.08984375,0.022126910207866966
2.109375,0.022085577378579746
2.12890625,0.021917208839060003
2.1484375,0.021629912203094293
2.16796875,0.02123277344074677
2.1875,0.020735703009250834
2.20703125,0.020149265796072232
2.2265625,0.019484495744823107
2.24609375,0.018752696177780595
2.2656250000000004,0.017965226969938686
2.28515625,0.017133279866287817
2.3046875,0.01626764336577944
2.32421875,0.015378458719454613
2.34375,0.01447496870555098
2.36328125,0.013565260948111259
2.3828125,0.01265600763680711
2.40234375,0.011752203581368085
2.421875,0.010856904593143937
2.4414062499999996,0.00997096822646057
2.4609375,0.009092798932595299
2.48046875,0.008218099677482974
2.5,0.007339632050022166
2.51953125,0.0064469868402348175
2.5390625,0.005526366995100471
2.55859375,0.004560384764956988
2.5781250000000004,0.0035278747353037422
2.59765625,0.002403724298809205
2.6171875,0.0011587229615724717
2.6367187499999996,-0.00024056830155817167
2.65625,-0.0018319266234897258
2.67578125,-0.00365755494343117
2.6953125,-0.005764147237466351
2.71484375,-0.00820293091846388
2.7343749999999996,-0.011029686273490758
2.75390625,-0.01430474303832386
2.7734375,-0.01809295443658125
2.7929687500000004,-0.022463649232199043
2.8125,-0.02749056255499382
2.83203125,-0.03325174645688282
2.8515624999999996,-0.039829461337972494
2.87109375,-0.04731004954503098
2.890625,-0.055783792587549966
2.91015625,-0.06534475353733203
2.9296875,-0.07609060627500383
2.9492187499999996,-0.08812245332082833
2.96875,-0.10154463403705351
2.98828125,-0.1164645250156506
3.0078125000000004,-0.13299233446899628
3.02734375,-0.15124089242340855
3.046875,-0.17132543847745202
3.0664062499999996,-0.1933634088309263
3.0859375,-0.21747422421797916
3.10546875,-0.24377908029120235
3.125,-0.27240074190513447
3.14453125,-0.3034633426396506
3.1640624999999996,-0.33709219078826375
3.18359375,-0.37341358291622195
3.203125,-0.4125546259698858
3.2226562499999996,-0.4546430687948734
3.2421875000000004,-0.499807143797088
3.2617187500000004,-0.5481754193603606
3.28125,-0.599876663517617
3.30078125,-0.6550397192614232
3.3203124999999996,-0.7137933917746195
3.33984375,-0.7762663477640894
3.359375,-0.8425870269905433
3.3789062499999996,-0.9128835660054835
3.3984375,-0.9872837340331097
3.41796875,-1.0659148808702466
3.4374999999999996,-1.148903896621148
3.4570312500000004,-1.2363771830363077
3.4765625000000004,-1.3284606361847873
3.49609375,-1.425279640157786
3.515625,-1.5269590714767487
3.5351562499999996,-1.6336233138619447
3.5546875,-1.745396283006326
3.57421875,-1.8624014609944939
3.5937499999999996,-1.9847619400067447
3.61328125,-2.1126004749534184
3.6328125,-2.2460395446940247
3.65234375,-2.385201421508862
3.6718750000000004,-2.530208248507222
3.6914062500000004,-2.6811821246753977
3.7109375,-2.8382451972891696
3.73046875,-3.0015197614386273
3.7499999999999996,-3.17112836643789
3.76953125,-3.3471939289177213
3.7890625,-3.5298398524253205
3.8085937499999996,-3.7191901533816525
3.828125,-3.9153695932727626
3.84765625,-4.118503816976862
3.8671875,-4.32871949715299
3.8867187500000004,-4.546144484639895
3.9062500000000004,-4.770907964834037
3.92578125,-5.003140620033632
3.9453125,-5.242974797750049
3.9648437499999996,-5.490544684998216
3.984375,-5.745986488583159
4.00390625,-6.009438621398823
4.0234375,-6.281041894747325
4.04296875,-6.560939716669367
4.0625,-6.849278296248537
4.08203125,-7.146206853810636
4.101562500000001,-7.451877836881709
4.12109375,-7.7664471416912715
4.140625,-8.090074339906101
4.16015625,-8.422922910150033
4.1796875,-8.7651604736995
4.19921875,-9.11695903353588
4.21875,-9.478495215674021
4.23828125,-9.84995051135993
4.2578125,-10.231511518325265
4.27734375,-10.623370178783695
4.296875,-11.025724011232525
4.316406250000001,-11.438776332355554
4.3359375,-11.862736464375416
4.35546875,-12.297819922035274
4.375,-12.744248571948457
4.39453125,-13.202250755278293
4.4140625,-13.672061362518257
4.43359375,-14.153921846440078
4.453125,-14.64808015594069
4.47265625,-15.154790569401236
4.4921875,-15.674313401084586
4.51171875,-16.20691454781529
4.531250000000001,-16.752864835422002
4.55078125,-17.312439114830852
4.5703125,-17.885915045849682
4.58984375,-18.47357149205822
4.609375,-19.075686432187084
4.62890625,-19.692534271176676
4.6484375,-20.324382406869866
4.66796875,-20.971486874991466
4.6875,-21.63408685457366
4.70703125,-22.31239776711545
4.7265625,-23.006602644396892
4.74609375,-23.71684137117169
4.765625,-24.44319732977879
4.78515625,-25.185680885205407
4.8046875,-25.94420905481495
4.82421875,-26.718580614295526
4.84375,-27.508445814195447
4.86328125,-28.313269843260912
4.882812499999999,-29.13228921357367
4.902343750000001,-29.964460416070857
4.921875,-30.808400587076466
4.94140625,-31.6623206502237
4.9609375,-32.52395259334627
4.98046875,-33.39047435429802
5.0,-34.25843833179452
5.01953125,-35.12371278524537
5.0390625,-35.981449043177996
5.05859375,-36.82609074649453
5.078125,-37.651442949956476
5.09765625,-38.45081688534438
5.1171875,-39.217258588340044
5.13671875,-39.94385546887697
5.156250000000001,-40.62409580904587
5.17578125,-41.25223713023747
5.1953125,-41.823628109091466
5.21484375,-42.3349323836662
5.234375,-42.78422312296999
5.25390625,-43.170948604996354
5.273437499999999,-43.49579919835929
5.29296875,-43.76052320027087
5.3125,-43.96773767617206
5.33203125,-44.12076429539973
5.3515625,-44.22349848827921
5.371093750000001,-44.28030271586492
5.390625,-44.29590685930944
5.41015625,-44.27530093077043
5.4296875,-44.22361372463223
5.44921875,-44.1459805981198
5.468749999999999,-44.047410318078796
5.488281249999999,-43.932663147221874
5.5078125,-43.80615053874688
5.52734375,-43.671862651586444
5.546875,-43.533325241615046
5.56640625,-43.39358365251474
5.585937500000001,-43.25520921733595
5.60546875,-43.12032238623691
5.625,-42.9906269852618
5.64453125,-42.86745075999371
5.6640625,-42.75178839433248
5.683593749999999,-42.644344257505544
5.703124999999999,-42.54557307246596
5.72265625,-42.455717452959064
5.7421875,-42.37484181683734
5.76171875,-42.302862571185386
5.78125,-42.23957471361349
5.800781250000001,-42.184675137899546
5.8203125,-42.137783001167506
5.83984375,-42.09845752820976
5.859375,-42.066213614697354
5.87890625,-42.04053555804731
5.898437499999999,-42.020889201783795
5.917968749999999,-42.006732732448675
5.9375,-41.99752632150722
5.95703125,-41.99274076074598
5.9765625,-41.99186519995774
5.99609375,-41.99441406115659
6.015625000000001,-41.99993317467153
6.03515625,-42.00800515948664
6.0546875,-42.018254053132125
6.07421875,-42.03034918518731
6.09375,-42.04400828271243
6.113281249999999,-42.05899979526416
6.132812499999999,-42.07514443096766
6.15234375,-42.09231590267376
6.171875,-42.11044089368616
6.19140625,-42.12949826492672
6.2109375,-42.1495175387455
6.230468750000001,-42.17057670788695
6.25,-42.192799430459544
6.26953125,-42.21635168233702
6.2890625,-42.24143794657998
6.30859375,-42.26829702477319
6.328124999999999,-42.29719755736482
6.347656249999999,-42.32843333914988
6.3671875,-42.3623185121115
6.38671875,-42.3991827112349
6.40625,-42.43936623009
6.425781249999999,-42.48321526243779
6.445312499999999,-42.53107726442547
6.46484375,-42.58329646959971
6.484375000000001,-42.64020957652733
6.50390625,-42.702141616662
6.523437500000001,-42.76940199861464
6.542968749999999,-42.842280714450524
6.5625,-42.92104468422649
6.58203125,-43.00593420685984
6.6015625,-43.097159478673845
6.62109375,-43.194897135663794
6.640624999999999,-43.29928677178056
6.660156249999999,-43.41042738344686
6.6796875,-43.52837369033435
6.699218750000001,-43.65313228442456
6.71875,-43.78465756406254
6.738281250000001,-43.92284741767735
6.757812499999999,-44.06753863401603
6.77734375,-44.218502033153406
6.796875,-44.37543733657604
6.81640625,-44.537967826819155
6.8359375,-44.70563488912496
6.855468749999999,-44.87789258101705
6.874999999999999,-45.054102441805995
6.89453125,-45.23352883342244
6.914062500000001,-45.41533519564404
6.93359375,-45.598581699737096
6.953125000000001,-45.78222488838074
6.972656249999999,-45.96511998598234
6.9921875,-46.14602663653457
7.01171875,-46.323618855068275
7.03125,-46.4964999382143
7.05078125,-46.66322294221545
7.070312499999999,-46.82231707881975
7.08984375,-46.972319986853435
7.109375,-47.11181531486308
7.128906250000001,-47.23947443018483
7.1484375,-47.35410041638217
7.167968750000001,-47.45467192847794
7.187499999999999,-47.54038405596786
7.20703125,-47.61068320538445
7.2265625,-47.66529323303469
7.24609375,-47.704230651724274
7.265625,-47.72780764654678
7.285156249999999,-47.73662273891793
7.3046875,-47.731540065449394
7.32421875,-47.71365921423454
7.343750000000001,-47.68427824614956
7.36328125,-47.64485284805376
7.382812500000001,-47.596954517567326
7.402343749999999,-47.54223032855513
7.421875,-47.48236627485541
7.44140625,-47.419055550357115
7.4609375,-47.35397249603587
7.48046875,-47.28875240101224
7.499999999999999,-47.22497692468902
7.51953125,-47.16416462149897
7.5390625,-47.10776588861371
7.558593750000001,-47.05716159788989
7.578125,-47.01366468959557
7.597656250000001,-46.97852407119625
7.617187499999999,-46.952930257825926
7.63671875,-46.938022295405595
7.65625,-46.9348956112935
7.67578125,-46.94461053387183
7.6953125,-46.968201308120214
7.714843749999999,-47.00668550784674
7.734375,-47.0610738072915
7.75390625,-47.13238012651586
7.773437500000001,-47.221632207809705
7.79296875,-47.32988271561753
7.812500000000001,-47.45822098092003
7.832031249999999,-47.60778553228719
7.8515625,-47.7797775679554
7.87109375,-47.97547552157613
7.890625,-48.19625084954975
7.91015625,-48.44358510353446
7.929687499999999,-48.71908821859939
7.94921875,-49.0245176947143
7.96875,-49.36179788838386
7.988281250000001,-49.733037807967406
8.0078125,-50.14054434994263
8.02734375,-50.58682534689793
8.046875,-51.074572275733836
8.06640625,-51.60660449647527
8.0859375,-52.18574281217659
8.10546875,-52.814555380936135
8.125,-53.49487602383191
8.14453125,-54.22692269773041
8.1640625,-55.007731185428874
8.18359375,-55.828474124029725
8.203125000000002,-56.67015554467352
8.22265625,-57.49752681891292
8.2421875,-58.25278694552702
8.26171875,-58.85482597955526
8.28125,-59.21431991804476
8.30078125,-59.26885286522658
8.3203125,-59.01753858131953
8.33984375,-58.52160082487215
8.359375,-57.87027857521926
8.37890625,-57.14531155388247
8.3984375,-56.405281811948086
8.417968750000002,-55.686086441325
8.4375,-55.007187743983785
8.45703125,-54.37773655693586
8.4765625,-53.800927510323326
8.49609375,-53.27671735072595
8.515625,-52.803414942606054
8.53515625,-52.37857666872888
8.5546875,-51.99949580943273
8.57421875,-51.663460598652414
8.59375,-51.36788240371488
8.61328125,-51.110351848916125
8.632812500000002,-50.88865555853681
8.65234375,-50.70077189074353
8.671875,-50.544855925663164
8.69140625,-50.41921937241719
8.7109375,-50.32230844787329
8.73046875,-50.25268129608815
8.75,-50.20898567799485
8.76953125,-50.189937192350975
8.7890625,-50.19429803633422
8.80859375,-50.2208561900858
8.828125,-50.26840486550702
8.847656250000002,-50.33572207012284
8.8671875,-50.42155019010266
8.88671875,-50.52457558918317
8.90625,-50.64340835396926
8.92578125,-50.776562494972566
8.9453125,-50.92243714083958
8.96484375,-51.0792995412211
8.984375,-51.24527101507979
9.00390625,-51.41831732682797
9.0234375,-51.596245305102215
9.04296875,-51.77670777720628
9.062500000000002,-51.95721898957882
9.08203125,-52.1351825133841
9.1015625,-52.307933081637934
9.12109375,-52.4727927829587
9.140625,-52.62714052867163
9.16015625,-52.76849181368836
9.1796875,-52.894583756424424
9.19921875,-53.00345862130922
9.21875,-53.093537966483204
9.23828125,-53.16367963290712
9.2578125,-53.21321120513643
9.277343750000002,-53.24193620849117
9.296875,-53.25011270041669
9.31640625,-53.23840737433794
9.3359375,-53.207831108407866
9.35546875,-53.15966353974352
9.375,-53.095374537793546
9.39453125,-53.016549539370715
9.4140625,-52.924823981596646
9.43359375,-52.82183000160004
9.453125,-52.709156583914776
9.47265625,-52.58832271391955
9.4921875,-52.46076196960287
9.51171875,-52.32781635836258
9.53125,-52.19073700285147
9.55078125,-52.050689386835955
9.5703125,-51.90876117317942
9.589843750000002,-51.765971003167515
9.609375,-51.62327710571854
9.62890625,-51.48158493740793
9.6484375,-51.34175341113436
9.66796875,-51.20459953981019
9.6875,-51.070901519714724
9.70703125,-50.94140041126345
9.7265625,-50.81680065209312
9.74609375,-50.69776966961862
9.765624999999998,-50.58493685896376
9.78515625,-50.47889216807018
9.804687500000002,-50.380184494050646
9.82421875,-50.289320051041805
9.84375,-50.206760825537785
9.86328125,-50.13292319442405
9.8828125,-50.06817674610094
9.90234375,-50.01284331737843
9.921875,-49.96719623848641
9.94140625,-49.93145976525446
9.9609375,-49.90580867043913
9.980468749999998,-49.89036796440751
