freq,resp
0.0,-39.42763781218885
0.078125,-39.43176320092328
0.15625,-39.444111722913064
0.23437499999999997,-39.46460035571546
0.3125,-39.49309043530662
0.390625,-39.529387237478446
0.46874999999999994,-39.57323943484019
0.546875,-39.62433847336213
0.625,-39.682317926117186
0.703125,-39.74675289622407
0.78125,-39.817159555922565
0.8593749999999999,-39.89299492390227
0.9374999999999999,-39.97365699801747
1.015625,-40.05848537464399
1.09375,-40.14676249819293
1.171875,-40.2377156934331
1.25,-40.330520137778755
1.328125,-40.42430292878447
1.40625,-40.51814839188732
1.484375,-40.611104753036656
1.5625,-40.7021922685894
1.640625,-40.79041285953789
1.7187499999999998,-40.87476123840449
1.7968749999999998,-40.95423744572764
1.8749999999999998,-41.02786063118665
1.9531250000000002,-41.09468382586989
2.03125,-41.15380936248893
2.109375,-41.204404516402626
2.1875,-41.24571687005726
2.2656250000000004,-41.277088854987895
2.34375,-41.29797090621288
2.421875,-41.30793267914794
2.5,-41.30667183173354
2.5781250000000004,-41.29401996330424
2.65625,-41.26994542201827
2.7343749999999996,-41.234552835956826
2.8125,-41.18807937811538
2.890625,-41.13088792980093
2.96875,-41.06345744790458
3.046875,-40.986370958239874
3.125,-40.900301681639334
3.203125,-40.805997847470714
3.28125,-40.70426676019948
3.359375,-40.59595866168232
3.4374999999999996,-40.481950880810025
3.515625,-40.36313269046401
3.5937499999999996,-40.240391207673994
3.6718750000000004,-40.11459858418053
3.7499999999999996,-39.986600648131535
3.828125,-39.85720707863907
3.9062500000000004,-39.72718312703379
3.984375,-39.59724284384946
4.0625,-39.468043729492585
4.140625,-39.34018269864992
4.21875,-39.21419323253635
4.296875,-39.09054358731527
4.375,-38.96963592952448
4.453125,-38.85180627814776
4.531250000000001,-38.73732514627986
4.609375,-38.62639879153812
4.6875,-38.51917100207393
4.765625,-38.41572536314572
4.84375,-38.316087966756726
4.921875,-38.2202305431453
5.0,-38.12807400731239
5.078125,-38.039492425836826
5.156250000000001,-37.954317418540754
5.234375,-37.87234301582676
5.3125,-37.79333099545631
5.390625,-37.717016721995684
5.468749999999999,-37.643115508048254
5.546875,-37.57132950876385
5.625,-37.50135515016525
5.703124999999999,-37.43289107797554
5.78125,-37.36564659749073
5.859375,-37.299350557521194
5.9375,-37.23376061367255
6.015625000000001,-37.16867278964949
6.09375,-37.10393124146117
6.171875,-37.03943812010869
6.25,-36.97516342533595
6.328124999999999,-36.91115474803221
6.40625,-36.84754681343149
6.484375000000001,-36.78457076262484
6.5625,-36.722563147070325
6.640624999999999,-36.661974660410955
6.71875,-36.603378694485365
6.796875,-36.54747988246548
6.874999999999999,-36.495122882449174
6.953125000000001,-36.44730176131595
7.03125,-36.405170464481536
7.109375,-36.370055008016834
7.187499999999999,-36.34346821476072
7.265625,-36.32712805027442
7.343750000000001,-36.32298092048924
7.421875,-36.333231705423536
7.499999999999999,-36.36038287557062
7.578125,-36.40728585158376
7.65625,-36.47720895259243
7.734375,-36.573928040255936
7.812500000000001,-36.701848643207036
7.890625,-36.866172511004706
7.96875,-37.07312819120627
8.046875,-37.33029613422723
8.125,-37.64707734815771
8.203125000000002,-38.03538727261295
8.28125,-38.510716716609494
8.359375,-39.093818612182226
8.4375,-39.81352125134217
8.515625,-40.71170948585562
8.59375,-41.85284769033085
8.671875,-43.34414336758881
8.75,-45.38484197956569
8.828125,-48.41658766082222
8.90625,-53.81161402944707
8.984375,-79.79160687668747
9.062500000000002,-53.86910796962695
9.140625,-47.21936717630272
9.21875,-43.22592917415306
9.296875,-40.29799136988132
9.375,-37.950684205392875
9.453125,-35.97071565725805
9.53125,-34.2451699614981
9.609375,-32.70700605408451
9.6875,-31.313159075268842
9.765624999999998,-30.034323497562134
9.84375,-28.8496562071903
9.921875,-27.743804817097587
10.0,-26.705134747775304
10.078125,-25.724617972268902
10.15625,-24.795107661860726
10.234375,-23.910848381199816
10.312500000000002,-23.067135669116993
10.390625,-22.260073504019662
10.46875,-21.48639774175998
10.546874999999998,-20.743345124968116
10.625,-20.02855446050593
10.703125,-19.33999094414651
10.78125,-18.67588742945764
10.859375,-18.03469829278991
10.937499999999998,-17.415062793315997
11.015625,-16.815775681544174
11.09375,-16.235763405404697
11.171875000000002,-15.674064684849963
11.25,-15.129814528975398
11.328125,-14.602230990299155
11.406249999999998,-14.090604113425304
11.484375,-13.594286656486288
11.5625,-13.112686255012555
11.640625,-12.64525876726999
11.71875,-12.191502593354354
11.796874999999998,-11.750953801540362
11.875,-11.323181927526278
11.953125,-10.90778633747548
12.031250000000002,-10.50439306574624
12.109375,-10.112652054124878
12.1875,-9.732234732141654
12.265624999999998,-9.362831888339922
12.34375,-9.004151790713571
12.421875,-8.655918521328829
12.5,-8.317870495718354
12.578125,-7.989759142221646
12.656249999999998,-7.671347720238275
12.734375,-7.36241025951041
12.8125,-7.062730605178102
12.890624999999998,-6.772101555551178
12.968750000000002,-6.490324081391067
13.046875000000002,-6.217206617057278
13.125,-5.952564415195275
13.203125,-5.696218957766882
13.281249999999998,-5.447997417183109
13.359375,-5.2077321621205686
13.4375,-4.975260303307585
13.515624999999998,-4.7504232751742395
13.59375,-4.533066449786115
13.671875,-4.323038779937753
13.749999999999998,-4.120192468679018
13.828125000000002,-3.92438266289439
13.906250000000002,-3.735467168859378
13.984375,-3.5533061879654513
14.0625,-3.3777620710408
14.140624999999998,-3.208699089902693
14.21875,-3.045983224962555
14.296875,-2.889481967869223
14.374999999999998,-2.7390641383230245
14.453125,-2.594599714324282
14.53125,-2.455959675237291
14.609375,-2.3230158571558883
14.687500000000002,-2.1956408201506177
14.765625000000002,-2.0737077270615574
14.84375,-1.9570902335755291
14.921875,-1.8456623893926283
14.999999999999998,-1.7392985503452472
15.078125,-1.6378733013832365
15.15625,-1.5412613903820158
15.234374999999998,-1.449337672766526
15.3125,-1.3619770669726616
15.390625,-1.2790545207898538
15.46875,-1.2004449886431443
15.546875000000002,-1.1260234198808305
15.625000000000002,-1.0556647581342624
15.703125,-0.9892439518095547
15.78125,-0.9266359757568783
15.859374999999998,-0.8677158641413942
15.9375,-0.8123587545108482
16.015625,-0.7604399430183767
16.09375,-0.7118349507152365
16.171875,-0.6664196007770028
16.25,-0.6240701064688117
16.328125,-0.5846631695903972
16.406250000000004,-0.5480760890708002
16.484375,-0.5141868793061245
16.5625,-0.4828743977521692
16.640625,-0.4540184811984025
16.71875,-0.4275000900609876
16.796875,-0.4032014599421867
16.875,-0.38100625961206736
16.953125,-0.3607997544779107
17.03125,-0.3424689745181966
17.109375,-0.3259028855732851
17.1875,-0.31099256280542814
17.265625000000004,-0.29763136506824117
17.34375,-0.2857151088619973
17.421875,-0.2751422404974193
17.5,-0.26581400504907
17.578125,-0.25763461065086873
17.65625,-0.25051138667254524
17.734375,-0.24435493431767186
17.8125,-0.23907926820239422
17.890625,-0.23460194750979033
17.96875,-0.23084419536795192
18.046875,-0.22773100517095557
18.125000000000004,-0.22519123265000118
18.203125,-0.22315767260694502
18.28125,-0.2215671193430616
18.359375,-0.22036040995096237
18.4375,-0.2194824497853595
18.515625,-0.21888221958742854
18.59375,-0.21851276390493274
18.671875,-0.21833116062491564
18.75,-0.2182984716138321
18.828125,-0.21837967464026492
18.90625,-0.21854357693428023
18.984375,-0.21876271091304128
19.0625,-0.21901321277201163
19.140625,-0.21927468480231282
19.21875,-0.21953004244591523
19.296875,-0.21976534723900928
19.375,-0.2199696269187716
19.453125,-0.22013468407838077
19.531249999999996,-0.22025489484854108
19.609375000000004,-0.22032699916020884
19.6875,-0.22034988420237187
19.765625,-0.22032436273053946
19.84375,-0.22025294790610186
19.921875,-0.22013962635476533
20.0,-0.2199896311241359
20.078125,-0.21980921619763272
20.15625,-0.2196054341848204
20.234375,-0.2193859187587968
20.3125,-0.21915867335009023
20.390625,-0.21893186753565025
20.46875,-0.21871364248169523
20.546875,-0.2185119267122074
20.625000000000004,-0.21833426338184828
20.703125,-0.21818765013411617
20.78125,-0.21807839252400768
20.859375,-0.21801197188012938
20.9375,-0.2179929283750085
21.015625,-0.2180247599650466
21.093749999999996,-0.21810983775383896
21.171875,-0.21824933822468506
21.25,-0.21844319268081627
21.328125,-0.21869005412498463
21.40625,-0.21898728170420936
21.484375000000004,-0.2193309427404402
21.5625,-0.2197158322640173
21.640625,-0.22013550986393232
21.71875,-0.22058235356716863
21.796875,-0.22104763035893749
21.874999999999996,-0.22152158285624807
21.953124999999996,-0.22199353154961476
22.03125,-0.22245199193127754
22.109375,-0.22288480573434163
22.1875,-0.22327928541501962
22.265625,-0.22362237092128806
22.343750000000004,-0.22390079770540317
22.421875,-0.22410127485612863
22.5,-0.22421067214978474
22.578125,-0.22421621474817147
22.65625,-0.22410568420708502
22.734374999999996,-0.22386762440241864
22.812499999999996,-0.2234915509328572
22.890625,-0.22296816251972526
22.96875,-0.22228955289698152
23.046875,-0.22144942166814424
23.125,-0.22044328260330892
23.203125000000004,-0.21926866785893837
23.28125,-0.21792532662620376
23.359375,-0.21641541675106954
23.4375,-0.21474368792083237
23.515625,-0.2129176550777
23.593749999999996,-0.2109477607998126
23.671874999999996,-0.2088475254833956
23.75,-0.20663368426565343
23.828125,-0.20432630974565577
23.90625,-0.20194891968840248
23.984375,-0.19952856903422572
24.062500000000004,-0.19709592567979592
24.140625,-0.19468532964664415
24.21875,-0.1923348354061416
24.296875,-0.19008623728441015
24.375,-0.1879850780245754
24.453124999999996,-0.18608064073490782
24.531249999999996,-0.18442592459800705
24.609375,-0.18307760485599264
24.6875,-0.18209597771821917
24.765625,-0.18154489095943288
24.84375,-0.18149166108643688
24.921875000000004,-0.1820069780486566
25.0,-0.1831647985520014
25.078125,-0.18504222910503265
25.15625,-0.18771939998162868
25.234375,-0.19127933132457406
25.312499999999996,-0.19580779264031747
25.390624999999996,-0.20139315694651527
25.46875,-0.2081262508317268
25.546875,-0.21610020167153354
25.625,-0.22541028321812648
25.703124999999996,-0.23615376074253752
25.781249999999996,-0.2484297368609131
25.859375,-0.2623389991203089
25.937500000000004,-0.2779838703563007
26.015625,-0.2954680627659505
26.093750000000004,-0.3148965365665349
26.171874999999996,-0.3363753640341632
26.25,-0.3600115996385015
26.328125,-0.3859131569110922
26.40625,-0.41418869260672425
26.484375,-0.4449474986405571
26.562499999999996,-0.47829940220942957
26.640624999999996,-0.5143546744346833
26.71875,-0.5532239477964084
26.796875000000004,-0.5950181425661243
26.875,-0.6398484023867002
26.953125000000004,-0.6878260390953727
27.031249999999996,-0.7390624868380815
27.109375,-0.7936692654813966
27.1875,-0.8517579532918419
27.265625,-0.9134401688218168
27.34375,-0.9788275619161542
27.421874999999996,-1.0480318137338365
27.499999999999996,-1.1211646456651285
27.578125,-1.198337837015569
27.656250000000004,-1.2796632513241852
27.734375,-1.3652528711844
27.812500000000004,-1.4552188414415657
27.890624999999996,-1.5496735206511858
27.96875,-1.648729540696271
28.046875,-1.7524998744806664
28.125,-1.8610979116377844
28.203125,-1.9746375422204565
28.281249999999996,-2.093233248367879
28.359375,-2.2170002039796852
28.4375,-2.3460543824649194
28.515625000000004,-2.4805126726755833
28.59375,-2.6204930031801084
28.671875000000004,-2.766114475082272
28.749999999999996,-2.917497503645572
28.828125,-3.074763969042546
28.90625,-3.2380373766133026
28.984375,-3.407443027088121
29.0625,-3.5831081973060597
29.140624999999996,-3.7651623320460246
29.21875,-3.953737247679226
29.296875,-4.148967348453938
29.375000000000004,-4.350989856335977
29.453125,-4.559945055452735
29.531250000000004,-4.775976552327121
29.609374999999996,-4.999231553241892
29.6875,-5.229861160247377
29.765625,-5.468020687519202
29.84375,-5.713869999990569
29.921875,-5.967573876429871
29.999999999999996,-6.22930239941344
30.078125,-6.499231374960576
30.15625,-6.777542784959861
30.234375000000004,-7.064425275929869
30.3125,-7.360074688132803
30.390625000000004,-7.664694629606932
30.468749999999996,-7.978497100316116
30.546875,-8.30170317234763
30.625,-8.634543732941646
30.703125,-8.977260298130036
30.78125,-9.330105905926004
30.859374999999996,-9.693346099373283
30.9375,-10.067260011375627
31.015625,-10.452141565134793
31.093750000000004,-10.84830080629121
31.171875,-11.256065385563884
31.250000000000004,-11.67578221392275
31.328124999999996,-12.10781931621921
31.40625,-12.552567913903967
31.484375,-13.010444773170304
31.5625,-13.481894861825612
31.640625,-13.967394366733654
31.718749999999996,-14.467454134198857
31.796875,-14.982623608718374
31.875,-15.513495361812442
31.953125000000004,-16.060710323086617
32.03125,-16.62496385151606
32.109375,-17.20701281782918
32.1875,-17.807683911046077
32.265625,-18.42788343676007
32.34375,-19.068608945864025
32.421875,-19.73096312601339
32.5,-20.41617051250644
32.578125,-21.125597742340588
32.65625,-21.860778302191072
32.734375,-22.623443033255747
32.81250000000001,-23.415558091070345
32.890625,-24.23937267382811
32.96875,-25.097479717032044
33.046875,-25.992894045245496
33.125,-26.929154398771434
33.203125,-27.910458687062555
33.28125,-28.94184639491749
33.359375,-30.02944939153354
33.4375,-31.180844477754874
33.515625,-32.4055616454753
33.59375,-33.71583869146314
33.67187500000001,-35.12778105158613
33.75,-36.663219771162105
33.828125,-38.35284177407446
33.90625,-40.24180622681965
33.984375,-42.40067165015928
34.0625,-44.9490969635012
34.140625,-48.115874037811174
34.21875,-52.43311972930491
34.296875,-59.74686501879735
34.375,-75.74982386680534
34.453125,-58.42103943766127
34.53125000000001,-53.59701745500765
34.609375,-50.91580873366293
34.6875,-49.17496198778488
34.765625,-47.96968101211678
34.84375,-47.11364142244154
34.921875,-46.50545345244966
35.0,-46.08371068304891
35.078125,-45.80829114958086
35.15625,-45.65141334600328
35.234375,-45.59290408339132
35.3125,-45.617492354467586
35.39062500000001,-45.71316068578565
35.46875,-45.87008484820599
35.546875,-46.07991822762219
35.625,-46.335287157398454
35.703125,-46.629420920570546
35.78125,-46.95587204516501
35.859375,-47.308301463481435
35.9375,-47.680315188172166
36.015625,-48.065347423063514
36.09375,-48.456590929378166
36.171875,-48.84697952383896
36.25000000000001,-49.22922969174337
36.328125,-49.59594795832735
36.40625,-49.93980724855865
36.484375,-50.25378860473556
36.5625,-50.53147468255561
36.640625,-50.76736992942382
36.71875,-50.95721203386538
36.796875,-51.098233613301645
36.875,-51.18933519830115
36.953125,-51.23114146236614
37.03125,-51.225930547469986
37.10937500000001,-51.17744685546196
37.1875,-51.09062539349996
37.265625,-50.971266345027935
37.34375,-50.82570028163061
37.421875,-50.6604784913064
37.5,-50.48211231654704
37.578125,-50.29687363415447
37.65625,-50.11065837212189
37.734375,-49.92890767866247
37.8125,-49.75657728842944
37.890625,-49.59814426162822
37.96875,-49.45764078074382
38.046875,-49.338706267640106
38.125,-49.244651101714595
38.203125,-49.178527271103675
38.28125,-49.14320316349589
38.35937500000001,-49.14144133571777
38.4375,-49.17597952296443
38.515625,-49.24961645206659
38.59375,-49.3653053469061
38.671875,-49.52625954457503
38.75,-49.73607663730764
38.828125,-49.99889040316074
38.90625,-50.31956410340689
38.984375,-50.70394554929666
39.06249999999999,-51.15921553144445
39.140625,-51.694380221668865
39.21875000000001,-52.32099176089808
39.296875,-53.054243356117965
39.375,-53.914706249203384
39.453125,-54.93122730282558
39.53125,-56.14607041228467
39.609375,-57.62478333784951
39.6875,-59.47721048216173
39.765625,-61.90931405591424
39.84375,-65.38353968328984
39.92187499999999,-71.37558911285555
